# Pulseq sequence format
# Created by JEMRIS 2.9.2

[VERSION]
major 1
minor 4
revision 0

[DEFINITIONS]
Name epi
Num_Blocks 132
GradientRasterTime 1e-05
AdcRasterTime 1e-07
RadiofrequencyRasterTime 1e-06
BlockDurationRaster 1e-05

# Format of blocks:
# NUM DUR RF  GX  GY  GZ ADC EXT
[BLOCKS]
  1  10   1   0   0   0  0  0
  2  66   0   1   2   0  0  0
  3 390   0   0   0   0  0  0
  4 132   0   3   0   0  1  0
  5  10   0   0   4   0  0  0
  6 132   0   5   0   0  1  0
  7  10   0   0   4   0  0  0
  8 132   0   3   0   0  1  0
  9  10   0   0   4   0  0  0
 10 132   0   5   0   0  1  0
 11  10   0   0   4   0  0  0
 12 132   0   3   0   0  1  0
 13  10   0   0   4   0  0  0
 14 132   0   5   0   0  1  0
 15  10   0   0   4   0  0  0
 16 132   0   3   0   0  1  0
 17  10   0   0   4   0  0  0
 18 132   0   5   0   0  1  0
 19  10   0   0   4   0  0  0
 20 132   0   3   0   0  1  0
 21  10   0   0   4   0  0  0
 22 132   0   5   0   0  1  0
 23  10   0   0   4   0  0  0
 24 132   0   3   0   0  1  0
 25  10   0   0   4   0  0  0
 26 132   0   5   0   0  1  0
 27  10   0   0   4   0  0  0
 28 132   0   3   0   0  1  0
 29  10   0   0   4   0  0  0
 30 132   0   5   0   0  1  0
 31  10   0   0   4   0  0  0
 32 132   0   3   0   0  1  0
 33  10   0   0   4   0  0  0
 34 132   0   5   0   0  1  0
 35  10   0   0   4   0  0  0
 36 132   0   3   0   0  1  0
 37  10   0   0   4   0  0  0
 38 132   0   5   0   0  1  0
 39  10   0   0   4   0  0  0
 40 132   0   3   0   0  1  0
 41  10   0   0   4   0  0  0
 42 132   0   5   0   0  1  0
 43  10   0   0   4   0  0  0
 44 132   0   3   0   0  1  0
 45  10   0   0   4   0  0  0
 46 132   0   5   0   0  1  0
 47  10   0   0   4   0  0  0
 48 132   0   3   0   0  1  0
 49  10   0   0   4   0  0  0
 50 132   0   5   0   0  1  0
 51  10   0   0   4   0  0  0
 52 132   0   3   0   0  1  0
 53  10   0   0   4   0  0  0
 54 132   0   5   0   0  1  0
 55  10   0   0   4   0  0  0
 56 132   0   3   0   0  1  0
 57  10   0   0   4   0  0  0
 58 132   0   5   0   0  1  0
 59  10   0   0   4   0  0  0
 60 132   0   3   0   0  1  0
 61  10   0   0   4   0  0  0
 62 132   0   5   0   0  1  0
 63  10   0   0   4   0  0  0
 64 132   0   3   0   0  1  0
 65  10   0   0   4   0  0  0
 66 132   0   5   0   0  1  0
 67  10   0   0   4   0  0  0
 68 132   0   3   0   0  1  0
 69  10   0   0   4   0  0  0
 70 132   0   5   0   0  1  0
 71  10   0   0   4   0  0  0
 72 132   0   3   0   0  1  0
 73  10   0   0   4   0  0  0
 74 132   0   5   0   0  1  0
 75  10   0   0   4   0  0  0
 76 132   0   3   0   0  1  0
 77  10   0   0   4   0  0  0
 78 132   0   5   0   0  1  0
 79  10   0   0   4   0  0  0
 80 132   0   3   0   0  1  0
 81  10   0   0   4   0  0  0
 82 132   0   5   0   0  1  0
 83  10   0   0   4   0  0  0
 84 132   0   3   0   0  1  0
 85  10   0   0   4   0  0  0
 86 132   0   5   0   0  1  0
 87  10   0   0   4   0  0  0
 88 132   0   3   0   0  1  0
 89  10   0   0   4   0  0  0
 90 132   0   5   0   0  1  0
 91  10   0   0   4   0  0  0
 92 132   0   3   0   0  1  0
 93  10   0   0   4   0  0  0
 94 132   0   5   0   0  1  0
 95  10   0   0   4   0  0  0
 96 132   0   3   0   0  1  0
 97  10   0   0   4   0  0  0
 98 132   0   5   0   0  1  0
 99  10   0   0   4   0  0  0
100 132   0   3   0   0  1  0
101  10   0   0   4   0  0  0
102 132   0   5   0   0  1  0
103  10   0   0   4   0  0  0
104 132   0   3   0   0  1  0
105  10   0   0   4   0  0  0
106 132   0   5   0   0  1  0
107  10   0   0   4   0  0  0
108 132   0   3   0   0  1  0
109  10   0   0   4   0  0  0
110 132   0   5   0   0  1  0
111  10   0   0   4   0  0  0
112 132   0   3   0   0  1  0
113  10   0   0   4   0  0  0
114 132   0   5   0   0  1  0
115  10   0   0   4   0  0  0
116 132   0   3   0   0  1  0
117  10   0   0   4   0  0  0
118 132   0   5   0   0  1  0
119  10   0   0   4   0  0  0
120 132   0   3   0   0  1  0
121  10   0   0   4   0  0  0
122 132   0   5   0   0  1  0
123  10   0   0   4   0  0  0
124 132   0   3   0   0  1  0
125  10   0   0   4   0  0  0
126 132   0   5   0   0  1  0
127  10   0   0   4   0  0  0
128 132   0   3   0   0  1  0
129  10   0   0   4   0  0  0
130 132   0   5   0   0  1  0
131   0   0   0   6   0  0  0
132 456   0   0   0   0  0  0

# Format of RF events:
# id amplitude mag_id phase_id time_shape_id delay freq phase
# ..        Hz   ....     ....          ....    us   Hz   rad
[RF]
1         2500 1 2 0   0 0 0

# Format of trapezoid gradients:
# id amplitude rise flat fall delay
# ..      Hz/m   us   us   us    us
[TRAP]
 1     -315217.4 200  260 200   0
 2        312500 200  200 200   0
 3        250000 160 1000 160   0
 4        -78125  50    0  50   0
 5       -250000 160 1000 160   0
 6             0   0    0   0   0

# Format of ADC events:
# id num dwell delay freq phase
# ..  ..    ns    us   Hz   rad
[ADC]
 1  64  15625 160 0 0

# Sequence Shapes
[SHAPES]

shape_id 1
num_samples 100
1
0
0
97

shape_id 2
num_samples 100
0
0
98


[SIGNATURE]
# This is the hash of the Pulseq file, calculated right before the [SIGNATURE] section was added
# It can be reproduced/verified with md5sum if the file trimmed to the position right above [SIGNATURE]
# The new line character preceding [SIGNATURE] BELONGS to the signature (and needs to be stripped away for recalculating/verification)
Type md5
Hash 6cc7d38f86c1f2cef800c3da284566a3
