# Pulseq sequence format
# Created by JEMRIS 2.9.2

[VERSION]
major 1
minor 4
revision 0

[DEFINITIONS]
Name gre
Num_Blocks 192
GradientRasterTime 1e-05
AdcRasterTime 1e-07
RadiofrequencyRasterTime 1e-06
BlockDurationRaster 1e-05
FOV 0.128 0.128 0.001

# Format of blocks:
# NUM DUR RF  GX  GY  GZ ADC EXT
[BLOCKS]
  1   10   1   0   0   0  0  0
  2  369   0   0   0   0  0  0
  3  186   0   1   2   0  0  0
  4  480   0   3   0   0  1  0
  5  360   0   4   5   0  0  0
  6 3595   0   0   0   0  0  0
  7   10   2   0   0   0  0  0
  8  369   0   0   0   0  0  0
  9  186   0   1   6   0  0  0
 10  480   0   3   0   0  2  0
 11  360   0   4   7   0  0  0
 12 3595   0   0   0   0  0  0
 13   10   3   0   0   0  0  0
 14  369   0   0   0   0  0  0
 15  186   0   1   8   0  0  0
 16  480   0   3   0   0  3  0
 17  360   0   4   9   0  0  0
 18 3595   0   0   0   0  0  0
 19   10   4   0   0   0  0  0
 20  369   0   0   0   0  0  0
 21  186   0   1  10   0  0  0
 22  480   0   3   0   0  4  0
 23  360   0   4  11   0  0  0
 24 3595   0   0   0   0  0  0
 25   10   5   0   0   0  0  0
 26  369   0   0   0   0  0  0
 27  186   0   1  12   0  0  0
 28  480   0   3   0   0  5  0
 29  360   0   4  13   0  0  0
 30 3595   0   0   0   0  0  0
 31   10   6   0   0   0  0  0
 32  369   0   0   0   0  0  0
 33  186   0   1  14   0  0  0
 34  480   0   3   0   0  6  0
 35  360   0   4  15   0  0  0
 36 3595   0   0   0   0  0  0
 37   10   3   0   0   0  0  0
 38  369   0   0   0   0  0  0
 39  186   0   1  16   0  0  0
 40  480   0   3   0   0  3  0
 41  360   0   4  17   0  0  0
 42 3595   0   0   0   0  0  0
 43   10   5   0   0   0  0  0
 44  369   0   0   0   0  0  0
 45  186   0   1  18   0  0  0
 46  480   0   3   0   0  5  0
 47  360   0   4  19   0  0  0
 48 3595   0   0   0   0  0  0
 49   10   1   0   0   0  0  0
 50  369   0   0   0   0  0  0
 51  186   0   1  20   0  0  0
 52  480   0   3   0   0  1  0
 53  360   0   4  21   0  0  0
 54 3595   0   0   0   0  0  0
 55   10   7   0   0   0  0  0
 56  369   0   0   0   0  0  0
 57  186   0   1  22   0  0  0
 58  480   0   3   0   0  7  0
 59  360   0   4  23   0  0  0
 60 3595   0   0   0   0  0  0
 61   10   2   0   0   0  0  0
 62  369   0   0   0   0  0  0
 63  186   0   1  24   0  0  0
 64  480   0   3   0   0  2  0
 65  360   0   4  25   0  0  0
 66 3595   0   0   0   0  0  0
 67   10   8   0   0   0  0  0
 68  369   0   0   0   0  0  0
 69  186   0   1  26   0  0  0
 70  480   0   3   0   0  8  0
 71  360   0   4  27   0  0  0
 72 3595   0   0   0   0  0  0
 73   10   4   0   0   0  0  0
 74  369   0   0   0   0  0  0
 75  186   0   1  28   0  0  0
 76  480   0   3   0   0  4  0
 77  360   0   4  29   0  0  0
 78 3595   0   0   0   0  0  0
 79   10   2   0   0   0  0  0
 80  369   0   0   0   0  0  0
 81  186   0   1  30   0  0  0
 82  480   0   3   0   0  2  0
 83  360   0   4  31   0  0  0
 84 3595   0   0   0   0  0  0
 85   10   6   0   0   0  0  0
 86  369   0   0   0   0  0  0
 87  186   0   1  32   0  0  0
 88  480   0   3   0   0  6  0
 89  360   0   4  33   0  0  0
 90 3595   0   0   0   0  0  0
 91   10   8   0   0   0  0  0
 92  369   0   0   0   0  0  0
 93  186   0   1  34   0  0  0
 94  480   0   3   0   0  8  0
 95  360   0   4  35   0  0  0
 96 3595   0   0   0   0  0  0
 97   10   5   0   0   0  0  0
 98  369   0   0   0   0  0  0
 99  186   0   1  36   0  0  0
100  480   0   3   0   0  5  0
101  360   0   4  36   0  0  0
102 3595   0   0   0   0  0  0
103   10   7   0   0   0  0  0
104  369   0   0   0   0  0  0
105  186   0   1  35   0  0  0
106  480   0   3   0   0  7  0
107  360   0   4  34   0  0  0
108 3595   0   0   0   0  0  0
109   10   7   0   0   0  0  0
110  369   0   0   0   0  0  0
111  186   0   1  33   0  0  0
112  480   0   3   0   0  7  0
113  360   0   4  32   0  0  0
114 3595   0   0   0   0  0  0
115   10   5   0   0   0  0  0
116  369   0   0   0   0  0  0
117  186   0   1  31   0  0  0
118  480   0   3   0   0  5  0
119  360   0   4  30   0  0  0
120 3595   0   0   0   0  0  0
121   10   8   0   0   0  0  0
122  369   0   0   0   0  0  0
123  186   0   1  29   0  0  0
124  480   0   3   0   0  8  0
125  360   0   4  28   0  0  0
126 3595   0   0   0   0  0  0
127   10   6   0   0   0  0  0
128  369   0   0   0   0  0  0
129  186   0   1  27   0  0  0
130  480   0   3   0   0  6  0
131  360   0   4  26   0  0  0
132 3595   0   0   0   0  0  0
133   10   2   0   0   0  0  0
134  369   0   0   0   0  0  0
135  186   0   1  25   0  0  0
136  480   0   3   0   0  2  0
137  360   0   4  24   0  0  0
138 3595   0   0   0   0  0  0
139   10   4   0   0   0  0  0
140  369   0   0   0   0  0  0
141  186   0   1  23   0  0  0
142  480   0   3   0   0  4  0
143  360   0   4  22   0  0  0
144 3595   0   0   0   0  0  0
145   10   8   0   0   0  0  0
146  369   0   0   0   0  0  0
147  186   0   1  21   0  0  0
148  480   0   3   0   0  8  0
149  360   0   4  20   0  0  0
150 3595   0   0   0   0  0  0
151   10   2   0   0   0  0  0
152  369   0   0   0   0  0  0
153  186   0   1  19   0  0  0
154  480   0   3   0   0  2  0
155  360   0   4  18   0  0  0
156 3595   0   0   0   0  0  0
157   10   7   0   0   0  0  0
158  369   0   0   0   0  0  0
159  186   0   1  17   0  0  0
160  480   0   3   0   0  7  0
161  360   0   4  16   0  0  0
162 3595   0   0   0   0  0  0
163   10   1   0   0   0  0  0
164  369   0   0   0   0  0  0
165  186   0   1  15   0  0  0
166  480   0   3   0   0  1  0
167  360   0   4  14   0  0  0
168 3595   0   0   0   0  0  0
169   10   5   0   0   0  0  0
170  369   0   0   0   0  0  0
171  186   0   1  13   0  0  0
172  480   0   3   0   0  5  0
173  360   0   4  12   0  0  0
174 3595   0   0   0   0  0  0
175   10   3   0   0   0  0  0
176  369   0   0   0   0  0  0
177  186   0   1  11   0  0  0
178  480   0   3   0   0  3  0
179  360   0   4  10   0  0  0
180 3595   0   0   0   0  0  0
181   10   6   0   0   0  0  0
182  369   0   0   0   0  0  0
183  186   0   1   9   0  0  0
184  480   0   3   0   0  6  0
185  360   0   4   8   0  0  0
186 3595   0   0   0   0  0  0
187   10   5   0   0   0  0  0
188  369   0   0   0   0  0  0
189  186   0   1   7   0  0  0
190  480   0   3   0   0  5  0
191  360   0   4   6   0  0  0
192 3595   0   0   0   0  0  0

# Format of RF events:
# id amplitude mag_id phase_id time_shape_id delay freq phase
# ..        Hz   ....     ....          ....    us   Hz   rad
[RF]
1      555.556 1 2 0   0 0 0
2      555.556 1 2 0   0 0 1.74533
3      555.556 1 2 0   0 0 5.23599
4      555.556 1 2 0   0 0 4.18879
5      555.556 1 2 0   0 0 4.88692
6      555.556 1 2 0   0 0 1.0472
7      555.556 1 2 0   0 0 3.14159
8      555.556 1 2 0   0 0 2.0944

# Format of trapezoid gradients:
# id amplitude rise flat fall delay
# ..      Hz/m   us   us   us    us
[TRAP]
 1     -147849.5 930    0 930   0
 2     -140449.4 890    0 890   0
 3         62500 400 4000 400   0
 4      158653.8 1000 1600 1000   0
 5      140449.4 890    0 890   0
 6     -136264.5 860    0 860   0
 7      136264.5 860    0 860   0
 8     -131777.1 830    0 830   0
 9      131777.1 830    0 830   0
10     -126953.1 800    0 800   0
11      126953.1 800    0 800   0
12     -121753.2 770    0 770   0
13      121753.2 770    0 770   0
14     -116131.8 740    0 740   0
15      116131.8 740    0 740   0
16     -110035.2 710    0 710   0
17      110035.2 710    0 710   0
18       -104944 670    0 670   0
19        104944 670    0 670   0
20     -99206.35 630    0 630   0
21      99206.35 630    0 630   0
22     -92690.68 590    0 590   0
23      92690.68 590    0 590   0
24     -85227.27 550    0 550   0
25      85227.27 550    0 550   0
26        -78125 500    0 500   0
27         78125 500    0 500   0
28     -69444.44 450    0 450   0
29      69444.44 450    0 450   0
30     -60096.15 390    0 390   0
31      60096.15 390    0 390   0
32     -48828.12 320    0 320   0
33      48828.12 320    0 320   0
34     -33967.39 230    0 230   0
35      33967.39 230    0 230   0
36             0   0    0   0   0

# Format of ADC events:
# id num dwell delay freq phase
# ..  ..    ns    us   Hz   rad
[ADC]
 1  32 125000 400 0 0
 2  32 125000 400 0 1.74533
 3  32 125000 400 0 5.23599
 4  32 125000 400 0 4.18879
 5  32 125000 400 0 4.88692
 6  32 125000 400 0 1.0472
 7  32 125000 400 0 3.14159
 8  32 125000 400 0 2.0944

# Sequence Shapes
[SHAPES]

shape_id 1
num_samples 100
1
0
0
97

shape_id 2
num_samples 100
0
0
98


[SIGNATURE]
# This is the hash of the Pulseq file, calculated right before the [SIGNATURE] section was added
# It can be reproduced/verified with md5sum if the file trimmed to the position right above [SIGNATURE]
# The new line character preceding [SIGNATURE] BELONGS to the signature (and needs to be stripped away for recalculating/verification)
Type md5
Hash 1063f25dfa1747864c8682d19019d586
