# Pulseq sequence format
# Created by JEMRIS 2.9.2

[VERSION]
major 1
minor 4
revision 0

[DEFINITIONS]
Name radial
Num_Blocks 160
GradientRasterTime 1e-05
AdcRasterTime 1e-07
RadiofrequencyRasterTime 1e-06
BlockDurationRaster 1e-05
FOV 0.032 0.032 0.001

# Format of blocks:
# NUM DUR RF  GX  GY  GZ ADC EXT
[BLOCKS]
  1  10   1   0   0   0  0  0
  2 446   0   1   0   0  0  0
  3 958   0   2   0   0  1  0
  4 446   0   1   0   0  0  0
  5 140   0   0   0   0  0  0
  6  10   1   0   0   0  0  0
  7 446   0   3   4   5  0  0
  8 958   0   6   7   8  1  0
  9 446   0   3   4   5  0  0
 10 140   0   0   0   0  0  0
 11  10   1   0   0   0  0  0
 12 446   0   9  10   5  0  0
 13 958   0  11  12   8  1  0
 14 446   0   9  10   5  0  0
 15 140   0   0   0   0  0  0
 16  10   1   0   0   0  0  0
 17 446   0  13  14   5  0  0
 18 958   0  15  16   8  1  0
 19 446   0  13  14   5  0  0
 20 140   0   0   0   0  0  0
 21  10   1   0   0   0  0  0
 22 446   0  17  18   5  0  0
 23 958   0  19  20   8  1  0
 24 446   0  17  18   5  0  0
 25 140   0   0   0   0  0  0
 26  10   1   0   0   0  0  0
 27 446   0  21  22   5  0  0
 28 958   0  23  24   8  1  0
 29 446   0  21  22   5  0  0
 30 140   0   0   0   0  0  0
 31  10   1   0   0   0  0  0
 32 446   0  25  26   5  0  0
 33 958   0  27  28   8  1  0
 34 446   0  25  26   5  0  0
 35 140   0   0   0   0  0  0
 36  10   1   0   0   0  0  0
 37 446   0  29  30   5  0  0
 38 958   0  31  32   8  1  0
 39 446   0  29  30   5  0  0
 40 140   0   0   0   0  0  0
 41  10   1   0   0   0  0  0
 42 446   0  33  34   5  0  0
 43 958   0  35  36   8  1  0
 44 446   0  33  34   5  0  0
 45 140   0   0   0   0  0  0
 46  10   1   0   0   0  0  0
 47 446   0  37  38   5  0  0
 48 958   0  39  40   8  1  0
 49 446   0  37  38   5  0  0
 50 140   0   0   0   0  0  0
 51  10   1   0   0   0  0  0
 52 446   0  41  42   5  0  0
 53 958   0  43  44   8  1  0
 54 446   0  41  42   5  0  0
 55 140   0   0   0   0  0  0
 56  10   1   0   0   0  0  0
 57 446   0  45  46   5  0  0
 58 958   0  47  48   8  1  0
 59 446   0  45  46   5  0  0
 60 140   0   0   0   0  0  0
 61  10   1   0   0   0  0  0
 62 446   0  49  50   5  0  0
 63 958   0  51  52   8  1  0
 64 446   0  49  50   5  0  0
 65 140   0   0   0   0  0  0
 66  10   1   0   0   0  0  0
 67 446   0  53  54   5  0  0
 68 958   0  55  56   8  1  0
 69 446   0  53  54   5  0  0
 70 140   0   0   0   0  0  0
 71  10   1   0   0   0  0  0
 72 446   0  57  58   5  0  0
 73 958   0  59  60   8  1  0
 74 446   0  57  58   5  0  0
 75 140   0   0   0   0  0  0
 76  10   1   0   0   0  0  0
 77 446   0  61  62   5  0  0
 78 958   0  63  64   8  1  0
 79 446   0  61  62   5  0  0
 80 140   0   0   0   0  0  0
 81  10   1   0   0   0  0  0
 82 446   0  65  66   5  0  0
 83 958   0  67  68   8  1  0
 84 446   0  65  66   5  0  0
 85 140   0   0   0   0  0  0
 86  10   1   0   0   0  0  0
 87 446   0   4  62   5  0  0
 88 958   0   7  64   8  1  0
 89 446   0   4  62   5  0  0
 90 140   0   0   0   0  0  0
 91  10   1   0   0   0  0  0
 92 446   0  10  58   5  0  0
 93 958   0  12  60   8  1  0
 94 446   0  10  58   5  0  0
 95 140   0   0   0   0  0  0
 96  10   1   0   0   0  0  0
 97 446   0  14  54   5  0  0
 98 958   0  16  56   8  1  0
 99 446   0  14  54   5  0  0
100 140   0   0   0   0  0  0
101  10   1   0   0   0  0  0
102 446   0  18  50   5  0  0
103 958   0  20  52   8  1  0
104 446   0  18  50   5  0  0
105 140   0   0   0   0  0  0
106  10   1   0   0   0  0  0
107 446   0  22  46   5  0  0
108 958   0  24  48   8  1  0
109 446   0  22  46   5  0  0
110 140   0   0   0   0  0  0
111  10   1   0   0   0  0  0
112 446   0  26  42   5  0  0
113 958   0  28  44   8  1  0
114 446   0  26  42   5  0  0
115 140   0   0   0   0  0  0
116  10   1   0   0   0  0  0
117 446   0  30  38   5  0  0
118 958   0  32  40   8  1  0
119 446   0  30  38   5  0  0
120 140   0   0   0   0  0  0
121  10   1   0   0   0  0  0
122 446   0  34  34   5  0  0
123 958   0  36  36   8  1  0
124 446   0  34  34   5  0  0
125 140   0   0   0   0  0  0
126  10   1   0   0   0  0  0
127 446   0  38  30   5  0  0
128 958   0  40  32   8  1  0
129 446   0  38  30   5  0  0
130 140   0   0   0   0  0  0
131  10   1   0   0   0  0  0
132 446   0  42  26   5  0  0
133 958   0  44  28   8  1  0
134 446   0  42  26   5  0  0
135 140   0   0   0   0  0  0
136  10   1   0   0   0  0  0
137 446   0  46  22   5  0  0
138 958   0  48  24   8  1  0
139 446   0  46  22   5  0  0
140 140   0   0   0   0  0  0
141  10   1   0   0   0  0  0
142 446   0  50  18   5  0  0
143 958   0  52  20   8  1  0
144 446   0  50  18   5  0  0
145 140   0   0   0   0  0  0
146  10   1   0   0   0  0  0
147 446   0  54  14   5  0  0
148 958   0  56  16   8  1  0
149 446   0  54  14   5  0  0
150 140   0   0   0   0  0  0
151  10   1   0   0   0  0  0
152 446   0  58  10   5  0  0
153 958   0  60  12   8  1  0
154 446   0  58  10   5  0  0
155 140   0   0   0   0  0  0
156  10   1   0   0   0  0  0
157 446   0  62   4   5  0  0
158 958   0  64   7   8  1  0
159 446   0  62   4   5  0  0
160 140   0   0   0   0  0  0

# Format of RF events:
# id amplitude mag_id phase_id time_shape_id delay freq phase
# ..        Hz   ....     ....          ....    us   Hz   rad
[RF]
1      1388.89 1 2 0   0 0 0

# Format of arbitrary gradients:
# id amplitude shape_id time_shape_id delay
# ..      Hz/m     ....          ....    us
[GRADIENTS]
3      -158014 3 0   0
4      15563.1 3 0   0
5 3.54132e-303 4 0   0
6       124398 5 0   0
7     -12252.1 5 0   0
8 3.54132e-303 6 0   0
9      -155728 3 0   0
10      30976.2 3 0   0
11       122598 5 0   0
12     -24386.3 5 0   0
13      -151942 3 0   0
14      46091.1 3 0   0
15       119618 5 0   0
16     -36285.6 5 0   0
17      -146693 3 0   0
18      60762.1 3 0   0
19       115485 5 0   0
20     -47835.4 5 0   0
21      -140030 3 0   0
22      74847.9 3 0   0
23       110240 5 0   0
24     -58924.6 5 0   0
25      -132020 3 0   0
26      88212.8 3 0   0
27       103934 5 0   0
28     -69446.3 5 0   0
29      -122738 3 0   0
30       100728 3 0   0
31      96626.3 5 0   0
32     -79299.2 5 0   0
33      -112274 3 0   0
34       112274 3 0   0
35      88388.3 5 0   0
36     -88388.3 5 0   0
37      -100728 3 0   0
38       122738 3 0   0
39      79299.2 5 0   0
40     -96626.3 5 0   0
41     -88212.8 3 0   0
42       132020 3 0   0
43      69446.3 5 0   0
44      -103934 5 0   0
45     -74847.9 3 0   0
46       140030 3 0   0
47      58924.6 5 0   0
48      -110240 5 0   0
49     -60762.1 3 0   0
50       146693 3 0   0
51      47835.4 5 0   0
52      -115485 5 0   0
53     -46091.1 3 0   0
54       151942 3 0   0
55      36285.6 5 0   0
56      -119618 5 0   0
57     -30976.2 3 0   0
58       155728 3 0   0
59      24386.3 5 0   0
60      -122598 5 0   0
61     -15563.1 3 0   0
62       158014 3 0   0
63      12252.1 5 0   0
64      -124398 5 0   0
65  -9.7224e-12 3 0   0
66       158779 3 0   0
67  7.65404e-12 5 0   0
68      -125000 5 0   0

# Format of trapezoid gradients:
# id amplitude rise flat fall delay
# ..      Hz/m   us   us   us    us
[TRAP]
 1     -158778.9 1000 2460 1000   0
 2        125000 790 8000 790   0

# Format of ADC events:
# id num dwell delay freq phase
# ..  ..    ns    us   Hz   rad
[ADC]
 1  32 250000 790 0 0

# Sequence Shapes
[SHAPES]

shape_id 1
num_samples 100
1
0
0
97

shape_id 2
num_samples 100
0
0
98

shape_id 3
num_samples 446
0.005
0.01
0.01
97
0.005
0
0
243
-0.005
-0.01
-0.01
97

shape_id 4
num_samples 446
0
0
444

shape_id 5
num_samples 958
0.006329114
0.01265823
0.01265823
76
0.006329114
0
0
797
-0.006329114
-0.01265823
-0.01265823
76

shape_id 6
num_samples 958
0
0
956


[SIGNATURE]
# This is the hash of the Pulseq file, calculated right before the [SIGNATURE] section was added
# It can be reproduced/verified with md5sum if the file trimmed to the position right above [SIGNATURE]
# The new line character preceding [SIGNATURE] BELONGS to the signature (and needs to be stripped away for recalculating/verification)
Type md5
Hash 52927a78cd2236a743f5751e6aed509f
