# Pulseq sequence format
# Created by JEMRIS 2.9.0

[VERSION]
major 1
minor 2
revision 1

[DEFINITIONS]
Name radial
Num_Blocks 160
FOV 32 32 1
Slice_Thickness 1

# Format of blocks:
# #  D RF  GX  GY  GZ ADC
[BLOCKS]
  1  0  1   0   0   0  0
  2  0  0   1   0   0  0
  3  0  0   2   0   0  1
  4  0  0   1   0   0  0
  5  1  0   0   0   0  0
  6  0  1   0   0   0  0
  7  0  0   3   4   5  0
  8  0  0   6   7   8  1
  9  0  0   3   4   5  0
 10  1  0   0   0   0  0
 11  0  1   0   0   0  0
 12  0  0   9  10   5  0
 13  0  0  11  12   8  1
 14  0  0   9  10   5  0
 15  1  0   0   0   0  0
 16  0  1   0   0   0  0
 17  0  0  13  14   5  0
 18  0  0  15  16   8  1
 19  0  0  13  14   5  0
 20  1  0   0   0   0  0
 21  0  1   0   0   0  0
 22  0  0  17  18   5  0
 23  0  0  19  20   8  1
 24  0  0  17  18   5  0
 25  1  0   0   0   0  0
 26  0  1   0   0   0  0
 27  0  0  21  22   5  0
 28  0  0  23  24   8  1
 29  0  0  21  22   5  0
 30  1  0   0   0   0  0
 31  0  1   0   0   0  0
 32  0  0  25  26   5  0
 33  0  0  27  28   8  1
 34  0  0  25  26   5  0
 35  1  0   0   0   0  0
 36  0  1   0   0   0  0
 37  0  0  29  30   5  0
 38  0  0  31  32   8  1
 39  0  0  29  30   5  0
 40  1  0   0   0   0  0
 41  0  1   0   0   0  0
 42  0  0  33  34   5  0
 43  0  0  35  36   8  1
 44  0  0  33  34   5  0
 45  1  0   0   0   0  0
 46  0  1   0   0   0  0
 47  0  0  37  38   5  0
 48  0  0  39  40   8  1
 49  0  0  37  38   5  0
 50  1  0   0   0   0  0
 51  0  1   0   0   0  0
 52  0  0  41  42   5  0
 53  0  0  43  44   8  1
 54  0  0  41  42   5  0
 55  1  0   0   0   0  0
 56  0  1   0   0   0  0
 57  0  0  45  46   5  0
 58  0  0  47  48   8  1
 59  0  0  45  46   5  0
 60  1  0   0   0   0  0
 61  0  1   0   0   0  0
 62  0  0  49  50   5  0
 63  0  0  51  52   8  1
 64  0  0  49  50   5  0
 65  1  0   0   0   0  0
 66  0  1   0   0   0  0
 67  0  0  53  54   5  0
 68  0  0  55  56   8  1
 69  0  0  53  54   5  0
 70  1  0   0   0   0  0
 71  0  1   0   0   0  0
 72  0  0  57  58   5  0
 73  0  0  59  60   8  1
 74  0  0  57  58   5  0
 75  1  0   0   0   0  0
 76  0  1   0   0   0  0
 77  0  0  61  62   5  0
 78  0  0  63  64   8  1
 79  0  0  61  62   5  0
 80  1  0   0   0   0  0
 81  0  1   0   0   0  0
 82  0  0  65  66   5  0
 83  0  0  67  68   8  1
 84  0  0  65  66   5  0
 85  1  0   0   0   0  0
 86  0  1   0   0   0  0
 87  0  0  69  62   5  0
 88  0  0  70  64   8  1
 89  0  0  69  62   5  0
 90  1  0   0   0   0  0
 91  0  1   0   0   0  0
 92  0  0  71  58   5  0
 93  0  0  72  60   8  1
 94  0  0  71  58   5  0
 95  1  0   0   0   0  0
 96  0  1   0   0   0  0
 97  0  0  73  74   5  0
 98  0  0  75  76   8  1
 99  0  0  73  74   5  0
100  1  0   0   0   0  0
101  0  1   0   0   0  0
102  0  0  77  50   5  0
103  0  0  78  52   8  1
104  0  0  77  50   5  0
105  1  0   0   0   0  0
106  0  1   0   0   0  0
107  0  0  79  46   5  0
108  0  0  80  48   8  1
109  0  0  79  46   5  0
110  1  0   0   0   0  0
111  0  1   0   0   0  0
112  0  0  81  42   5  0
113  0  0  82  44   8  1
114  0  0  81  42   5  0
115  1  0   0   0   0  0
116  0  1   0   0   0  0
117  0  0  83  84   5  0
118  0  0  85  86   8  1
119  0  0  83  84   5  0
120  1  0   0   0   0  0
121  0  1   0   0   0  0
122  0  0  87  88   5  0
123  0  0  89  90   8  1
124  0  0  87  88   5  0
125  1  0   0   0   0  0
126  0  1   0   0   0  0
127  0  0  91  30   5  0
128  0  0  92  32   8  1
129  0  0  91  30   5  0
130  1  0   0   0   0  0
131  0  1   0   0   0  0
132  0  0  93  26   5  0
133  0  0  94  28   8  1
134  0  0  93  26   5  0
135  1  0   0   0   0  0
136  0  1   0   0   0  0
137  0  0  95  96   5  0
138  0  0  97  98   8  1
139  0  0  95  96   5  0
140  1  0   0   0   0  0
141  0  1   0   0   0  0
142  0  0  99 100   5  0
143  0  0 101 102   8  1
144  0  0  99 100   5  0
145  1  0   0   0   0  0
146  0  1   0   0   0  0
147  0  0 103  14   5  0
148  0  0 104  16   8  1
149  0  0 103  14   5  0
150  1  0   0   0   0  0
151  0  1   0   0   0  0
152  0  0 105 106   5  0
153  0  0 107 108   8  1
154  0  0 105 106   5  0
155  1  0   0   0   0  0
156  0  1   0   0   0  0
157  0  0 109 110   5  0
158  0  0 111 112   8  1
159  0  0 109 110   5  0
160  1  0   0   0   0  0

# Format of RF events:
# id amplitude mag_id phase_id delay freq phase
# ..        Hz   ....     ....    us   Hz   rad
[RF]
1      1388.89 1 2   0 0 0

# Format of arbitrary gradients:
# id amplitude shape_id delay
# ..      Hz/m     ....    us
[GRADIENTS]
3      -158014 3   0
4      15563.1 4   0
5 3.54132e-303 5   0
6       124398 6   0
7     -12252.1 7   0
8 3.54132e-303 8   0
9      -155728 9   0
10      30976.2 10   0
11       122598 11   0
12     -24386.3 12   0
13      -151942 13   0
14      46091.1 14   0
15       119618 15   0
16     -36285.6 12   0
17      -146693 16   0
18      60762.1 13   0
19       115485 17   0
20     -47835.4 18   0
21      -140030 13   0
22      74847.9 19   0
23       110240 7   0
24     -58924.6 20   0
25      -132020 21   0
26      88212.8 22   0
27       103934 23   0
28     -69446.3 12   0
29      -122738 19   0
30       100728 24   0
31      96626.3 25   0
32     -79299.2 6   0
33      -112274 24   0
34       112274 24   0
35      88388.3 26   0
36     -88388.3 6   0
37      -100728 24   0
38       122738 19   0
39      79299.2 11   0
40     -96626.3 12   0
41     -88212.8 22   0
42       132020 27   0
43      69446.3 25   0
44      -103934 28   0
45     -74847.9 19   0
46       140030 13   0
47      58924.6 29   0
48      -110240 7   0
49     -60762.1 30   0
50       146693 16   0
51      47835.4 20   0
52      -115485 17   0
53     -46091.1 13   0
54       151942 13   0
55      36285.6 7   0
56      -119618 20   0
57     -30976.2 10   0
58       155728 9   0
59      24386.3 31   0
60      -122598 11   0
61     -15563.1 21   0
62       158014 3   0
63      12252.1 32   0
64      -124398 6   0
65  -9.7224e-12 33   0
66       158779 30   0
67  7.65404e-12 34   0
68      -125000 6   0
69      15563.1 4   0
70     -12252.1 7   0
71      30976.2 10   0
72     -24386.3 31   0
73      46091.1 30   0
74       151942 13   0
75     -36285.6 7   0
76      -119618 15   0
77      60762.1 13   0
78     -47835.4 23   0
79      74847.9 19   0
80     -58924.6 20   0
81      88212.8 22   0
82     -69446.3 25   0
83       100728 35   0
84       122738 19   0
85     -79299.2 20   0
86     -96626.3 25   0
87       112274 24   0
88       112274 24   0
89     -88388.3 6   0
90     -88388.3 26   0
91       122738 19   0
92     -96626.3 25   0
93       132020 21   0
94      -103934 36   0
95       140030 13   0
96      74847.9 19   0
97      -110240 37   0
98     -58924.6 7   0
99       146693 16   0
100      60762.1 30   0
101      -115485 17   0
102     -47835.4 20   0
103       151942 13   0
104      -119618 15   0
105       155728 9   0
106      30976.2 10   0
107      -122598 11   0
108     -24386.3 38   0
109       158014 39   0
110      15563.1 13   0
111      -124398 40   0
112     -12252.1 29   0

# Format of trapezoid gradients:
# id amplitude rise flat fall delay
# ..      Hz/m   us   us   us    us
[TRAP]
 1     -158778.9 1000 2460 1000   0
 2        125000 790 8000 790   0

# Format of ADC events:
# id num dwell delay freq phase
# ..  ..    ns    us   Hz   rad
[ADC]
 1  32 250000 790 0 0

# Format of delays:
# id delay (us)
[DELAYS]
1 1400

# Sequence Shapes

[SHAPES]

shape_id 1
num_samples 100
1
0
0
97

shape_id 2
num_samples 100
0
0
98

shape_id 3
num_samples 446
0.005
0.01
0.01
97
0.005
0
0
243
-0.005
-0.01
-0.01
97

shape_id 4
num_samples 446
0.005
0.01
0.01
97
0.005
0
0
243
-0.005
-0.01
-0.01
97

shape_id 5
num_samples 446
0
0
444

shape_id 6
num_samples 958
0.00632911
0.0126582
0.0126582
76
0.00632911
0
0
797
-0.00632911
-0.0126582
-0.0126582
76

shape_id 7
num_samples 958
0.00632911
0.0126582
0.0126582
76
0.00632911
0
0
797
-0.00632911
-0.0126582
-0.0126582
76

shape_id 8
num_samples 958
0
0
956

shape_id 9
num_samples 446
0.005
0.01
0.01
97
0.005
0
0
243
-0.005
-0.01
-0.01
97

shape_id 10
num_samples 446
0.005
0.01
0.01
97
0.005
0
0
243
-0.005
-0.01
-0.01
97

shape_id 11
num_samples 958
0.00632911
0.0126582
0.0126582
76
0.00632911
0
0
797
-0.00632911
-0.0126582
-0.0126582
76

shape_id 12
num_samples 958
0.00632911
0.0126582
0.0126582
76
0.00632911
0
0
797
-0.00632911
-0.0126582
-0.0126582
76

shape_id 13
num_samples 446
0.005
0.01
0.01
97
0.005
0
0
243
-0.005
-0.01
-0.01
97

shape_id 14
num_samples 446
0.005
0.01
0.01
97
0.005
0
0
243
-0.005
-0.01
-0.01
97

shape_id 15
num_samples 958
0.00632911
0.0126582
0.0126582
76
0.00632911
0
0
797
-0.00632911
-0.0126582
-0.0126582
76

shape_id 16
num_samples 446
0.005
0.01
0.01
97
0.005
0
0
243
-0.005
-0.01
-0.01
97

shape_id 17
num_samples 958
0.00632911
0.0126582
0.0126582
76
0.00632911
0
0
797
-0.00632911
-0.0126582
-0.0126582
76

shape_id 18
num_samples 958
0.00632911
0.0126582
0.0126582
76
0.00632911
0
0
797
-0.00632911
-0.0126582
-0.0126582
76

shape_id 19
num_samples 446
0.005
0.01
0.01
97
0.005
0
0
243
-0.005
-0.01
-0.01
97

shape_id 20
num_samples 958
0.00632911
0.0126582
0.0126582
76
0.00632911
0
0
797
-0.00632911
-0.0126582
-0.0126582
76

shape_id 21
num_samples 446
0.005
0.01
0.01
97
0.005
0
0
243
-0.005
-0.01
-0.01
97

shape_id 22
num_samples 446
0.005
0.01
0.01
97
0.005
0
0
243
-0.005
-0.01
-0.01
97

shape_id 23
num_samples 958
0.00632911
0.0126582
0.0126582
76
0.00632911
0
0
797
-0.00632911
-0.0126582
-0.0126582
76

shape_id 24
num_samples 446
0.005
0.01
0.01
97
0.005
0
0
243
-0.005
-0.01
-0.01
97

shape_id 25
num_samples 958
0.00632911
0.0126582
0.0126582
76
0.00632911
0
0
797
-0.00632911
-0.0126582
-0.0126582
76

shape_id 26
num_samples 958
0.00632911
0.0126582
0.0126582
76
0.00632911
0
0
797
-0.00632911
-0.0126582
-0.0126582
76

shape_id 27
num_samples 446
0.005
0.01
0.01
97
0.005
0
0
243
-0.005
-0.01
-0.01
97

shape_id 28
num_samples 958
0.00632911
0.0126582
0.0126582
76
0.00632911
0
0
797
-0.00632911
-0.0126582
-0.0126582
76

shape_id 29
num_samples 958
0.00632911
0.0126582
0.0126582
76
0.00632911
0
0
797
-0.00632911
-0.0126582
-0.0126582
76

shape_id 30
num_samples 446
0.005
0.01
0.01
97
0.005
0
0
243
-0.005
-0.01
-0.01
97

shape_id 31
num_samples 958
0.00632911
0.0126582
0.0126582
76
0.00632911
0
0
797
-0.00632911
-0.0126582
-0.0126582
76

shape_id 32
num_samples 958
0.00632911
0.0126582
0.0126582
76
0.00632911
0
0
797
-0.00632911
-0.0126582
-0.0126582
76

shape_id 33
num_samples 446
0.005
0.01
0.01
97
0.005
0
0
243
-0.005
-0.01
-0.01
97

shape_id 34
num_samples 958
0.00632911
0.0126582
0.0126582
76
0.00632911
0
0
797
-0.00632911
-0.0126582
-0.0126582
76

shape_id 35
num_samples 446
0.005
0.01
0.01
97
0.005
0
0
243
-0.005
-0.01
-0.01
97

shape_id 36
num_samples 958
0.00632911
0.0126582
0.0126582
76
0.00632911
0
0
797
-0.00632911
-0.0126582
-0.0126582
76

shape_id 37
num_samples 958
0.00632911
0.0126582
0.0126582
76
0.00632911
0
0
797
-0.00632911
-0.0126582
-0.0126582
76

shape_id 38
num_samples 958
0.00632911
0.0126582
0.0126582
76
0.00632911
0
0
797
-0.00632911
-0.0126582
-0.0126582
76

shape_id 39
num_samples 446
0.005
0.01
0.01
97
0.005
0
0
243
-0.005
-0.01
-0.01
97

shape_id 40
num_samples 958
0.00632911
0.0126582
0.0126582
76
0.00632911
0
0
797
-0.00632911
-0.0126582
-0.0126582
76


[SIGNATURE]
Type md5
Hash 8ea93040ec84229dfdd74fff666e0875
