# Pulseq sequence format
# Created by JEMRIS 2.9.0

[VERSION]
major 1
minor 2
revision 1

[DEFINITIONS]
Name sli_sel
Num_Blocks 6

# Format of blocks:
##  D RF  GX  GY  GZ ADC
[BLOCKS]
1  0  1   1   0   0  1
2  0  0   2   0   0  2
3  1  0   0   0   0  0
4  0  2   1   0   0  1
5  0  0   2   0   0  2
6  1  0   0   0   0  0

# Format of RF events:
# id amplitude mag_id phase_id delay freq phase
# ..        Hz   ....     ....    us   Hz   rad
[RF]
1      748.727 1 2  60 0 0
2      748.727 1 2  60 2247.19 0

# Format of trapezoid gradients:
# id amplitude rise flat fall delay
# ..      Hz/m   us   us   us    us
[TRAP]
 1      89887.64  60 2670  60   0
 2     -438202.2 280    0 280   0

# Format of ADC events:
# id num dwell delay freq phase
# ..  ..    ns    us   Hz   rad
[ADC]
 1   5 534000  60 0 0
 2   5 112000   0 0 0

# Format of delays:
# id delay (us)
[DELAYS]
1 100

# Sequence Shapes

[SHAPES]

shape_id 1
num_samples 2667
1.30182e-10
1.21256e-07
1.21256e-07
8
7.83798e-07
7.83798e-07
8
2.07513e-06
2.07513e-06
8
3.97507e-06
3.97507e-06
8
6.4442e-06
6.4442e-06
8
9.42411e-06
9.42411e-06
8
1.2838e-05
1.2838e-05
8
1.6592e-05
1.6592e-05
8
2.05759e-05
2.05759e-05
8
2.46655e-05
2.46655e-05
8
2.87247e-05
2.87247e-05
8
3.26072e-05
3.26072e-05
8
3.61597e-05
3.61597e-05
8
3.92247e-05
3.92247e-05
8
4.16434e-05
4.16434e-05
8
4.3259e-05
4.3259e-05
8
4.39198e-05
4.39198e-05
8
4.34828e-05
4.34828e-05
8
4.18172e-05
4.18172e-05
8
3.8807e-05
3.8807e-05
8
3.4355e-05
3.4355e-05
8
2.83852e-05
2.83852e-05
8
2.08459e-05
2.08459e-05
8
1.1712e-05
1.1712e-05
8
9.87105e-07
9.87105e-07
8
-1.12943e-05
-1.12943e-05
8
-2.50658e-05
-2.50658e-05
8
-4.02282e-05
-4.02282e-05
8
-5.66487e-05
-5.66487e-05
8
-7.41614e-05
-7.41614e-05
8
-9.25677e-05
-9.25677e-05
8
-0.000111637
-0.000111637
8
-0.00013111
-0.00013111
8
-0.000150699
-0.000150699
0
-6.07406e-05
0.000150699
0.000150699
5
0.000170091
0.000170091
8
0.000188952
0.000188952
8
0.000206931
0.000206931
8
0.000223662
0.000223662
8
0.00023877
0.00023877
8
0.000251879
0.000251879
8
0.000262611
0.000262611
8
0.000270597
0.000270597
8
0.000275479
0.000275479
8
0.00027692
0.00027692
8
0.000274606
0.000274606
8
0.000268254
0.000268254
8
0.000257616
0.000257616
8
0.000242487
0.000242487
8
0.000222708
0.000222708
8
0.000198173
0.000198173
8
0.000168831
0.000168831
8
0.000134692
0.000134692
8
9.58283e-05
9.58283e-05
8
5.23804e-05
5.23804e-05
8
4.55564e-06
4.55564e-06
8
-4.73686e-05
-4.73686e-05
8
-0.000103045
-0.000103045
8
-0.000162057
-0.000162057
8
-0.000223919
-0.000223919
8
-0.00028808
-0.00028808
8
-0.000353925
-0.000353925
8
-0.000420782
-0.000420782
8
-0.00048792
-0.00048792
8
-0.000554563
-0.000554563
8
-0.000619892
-0.000619892
8
-0.00068305
-0.00068305
8
-0.000743156
-0.000743156
4
0.000632884
0.000743156
0.000743156
1
0.000799307
0.000799307
8
0.000850592
0.000850592
8
0.000896097
0.000896097
8
0.000934919
0.000934919
8
0.000966175
0.000966175
8
0.000989009
0.000989009
8
0.00100261
0.00100261
8
0.0010062
0.0010062
8
0.000999093
0.000999093
8
0.000980644
0.000980644
8
0.0009503
0.0009503
8
0.000907593
0.000907593
8
0.000852154
0.000852154
8
0.000783716
0.000783716
8
0.000702122
0.000702122
8
0.000607332
0.000607332
8
0.000499428
0.000499428
8
0.000378615
0.000378615
8
0.000245224
0.000245224
8
9.97157e-05
9.97157e-05
8
-5.73215e-05
-5.73215e-05
8
-0.000225173
-0.000225173
8
-0.000403001
-0.000403001
8
-0.000589845
-0.000589845
8
-0.000784634
-0.000784634
8
-0.000986185
-0.000986185
8
-0.00119322
-0.00119322
8
-0.00140436
-0.00140436
8
-0.00161815
-0.00161815
8
-0.00183307
-0.00183307
8
-0.00204753
-0.00204753
8
-0.0022599
-0.0022599
8
-0.00246852
-0.00246852
7
9.75574e-05
0.00267172
0.00267172
8
0.00286781
0.00286781
8
0.00305511
0.00305511
8
0.00323198
0.00323198
8
0.00339682
0.00339682
8
0.00354808
0.00354808
8
0.00368428
0.00368428
8
0.00380403
0.00380403
8
0.00390604
0.00390604
8
0.00398914
0.00398914
8
0.00405226
0.00405226
8
0.00409448
0.00409448
8
0.00411504
0.00411504
8
0.00411331
0.00411331
8
0.00408883
0.00408883
8
0.00404132
0.00404132
8
0.00397066
0.00397066
8
0.0038769
0.0038769
8
0.00376028
0.00376028
8
0.00362122
0.00362122
8
0.00346031
0.00346031
8
0.0032783
0.0032783
8
0.00307614
0.00307614
8
0.00285491
0.00285491
8
0.00261586
0.00261586
8
0.00236037
0.00236037
8
0.00208998
0.00208998
8
0.00180632
0.00180632
8
0.00151116
0.00151116
8
0.00120633
0.00120633
8
0.000893775
0.000893775
8
0.000575477
0.000575477
8
0.000253477
0.000253477
8
-7.01535e-05
-7.01535e-05
8
-0.000393333
-0.000393333
8
-0.000713981
-0.000713981
8
-0.00103004
-0.00103004
8
-0.00133949
-0.00133949
8
-0.00164036
-0.00164036
8
-0.00193076
-0.00193076
8
-0.00220888
-0.00220888
8
-0.002473
-0.002473
8
-0.00272155
-0.00272155
8
-0.00295304
-0.00295304
8
-0.00316615
-0.00316615
8
-0.0033597
-0.0033597
8
-0.00353267
-0.00353267
8
-0.0036842
-0.0036842
8
-0.0038136
-0.0038136
8
-0.00392035
-0.00392035
8
-0.00400412
-0.00400412
8
-0.00406475
-0.00406475
8
-0.00410226
-0.00410226
8
-0.00411683
-0.00411683
8
-0.00410884
-0.00410884
8
-0.0040788
-0.0040788
8
-0.00402742
-0.00402742
8
-0.00395552
-0.00395552
8
-0.00386409
-0.00386409
8
-0.00375424
-0.00375424
8
-0.0036272
-0.0036272
8
-0.00348429
-0.00348429
8
-0.00332697
-0.00332697
8
-0.00315672
-0.00315672
8
-0.00297513
-0.00297513
8
-0.00278382
-0.00278382
8
-0.00258444
-0.00258444
4
0.00124279
0.00258444
0.00258444
1
0.00237869
0.00237869
8
0.00216823
0.00216823
8
0.00195475
0.00195475
8
0.0017399
0.0017399
8
0.00152528
0.00152528
8
0.00131245
0.00131245
8
0.00110292
0.00110292
8
0.000898096
0.000898096
8
0.000699324
0.000699324
8
0.000507838
0.000507838
8
0.000324776
0.000324776
8
0.000151161
0.000151161
8
-1.21005e-05
-1.21005e-05
8
-0.000164222
-0.000164222
8
-0.000304544
-0.000304544
8
-0.000432534
-0.000432534
8
-0.000547786
-0.000547786
8
-0.000650025
-0.000650025
8
-0.0007391
-0.0007391
8
-0.000814981
-0.000814981
8
-0.00087776
-0.00087776
8
-0.000927643
-0.000927643
8
-0.000964941
-0.000964941
8
-0.000990068
-0.000990068
8
-0.00100353
-0.00100353
8
-0.00100592
-0.00100592
8
-0.000997898
-0.000997898
8
-0.000980201
-0.000980201
8
-0.000953615
-0.000953615
8
-0.000918974
-0.000918974
8
-0.000877146
-0.000877146
8
-0.000829025
-0.000829025
8
-0.000775519
-0.000775519
7
-2.68695e-05
0.000717543
0.000717543
8
0.000656004
0.000656004
8
0.000591798
0.000591798
8
0.000525797
0.000525797
8
0.000458841
0.000458841
8
0.000391732
0.000391732
8
0.000325228
0.000325228
8
0.000260033
0.000260033
8
0.000196796
0.000196796
8
0.000136105
0.000136105
8
7.8483e-05
7.8483e-05
8
2.43854e-05
2.43854e-05
8
-2.58009e-05
-2.58009e-05
8
-7.1759e-05
-7.1759e-05
8
-0.000113242
-0.000113242
8
-0.000150071
-0.000150071
8
-0.000182137
-0.000182137
8
-0.000209393
-0.000209393
8
-0.000231858
-0.000231858
8
-0.000249605
-0.000249605
8
-0.000262766
-0.000262766
8
-0.000271519
-0.000271519
8
-0.000276089
-0.000276089
8
-0.000276739
-0.000276739
8
-0.000273766
-0.000273766
8
-0.000267497
-0.000267497
8
-0.000258276
-0.000258276
8
-0.000246468
-0.000246468
8
-0.000232447
-0.000232447
8
-0.000216589
-0.000216589
8
-0.000199272
-0.000199272
8
-0.000180866
-0.000180866
8
-0.000161733
-0.000161733
8
-0.000142216
-0.000142216
0
-0.000134609
0.000142216
0.000142216
5
0.00012264
0.00012264
8
0.000103308
0.000103308
8
8.4496e-05
8.4496e-05
8
6.64505e-05
6.64505e-05
8
4.93885e-05
4.93885e-05
8
3.34948e-05
3.34948e-05
8
1.89208e-05
1.89208e-05
8
5.78475e-06
5.78475e-06
8
-5.82839e-06
-5.82839e-06
8
-1.58662e-05
-1.58662e-05
8
-2.43079e-05
-2.43079e-05
8
-3.11624e-05
-3.11624e-05
8
-3.64666e-05
-3.64666e-05
8
-4.02832e-05
-4.02832e-05
8
-4.26976e-05
-4.26976e-05
8
-4.38156e-05
-4.38156e-05
8
-4.376e-05
-4.376e-05
8
-4.26674e-05
-4.26674e-05
8
-4.06848e-05
-4.06848e-05
8
-3.79666e-05
-3.79666e-05
8
-3.46708e-05
-3.46708e-05
8
-3.09562e-05
-3.09562e-05
8
-2.69787e-05
-2.69787e-05
8
-2.28888e-05
-2.28888e-05
8
-1.88289e-05
-1.88289e-05
8
-1.49302e-05
-1.49302e-05
8
-1.1311e-05
-1.1311e-05
8
-8.07462e-06
-8.07462e-06
8
-5.30768e-06
-5.30768e-06
8
-3.07913e-06
-3.07913e-06
8
-1.4392e-06
-1.4392e-06
8
-4.18999e-07
-4.18999e-07
8
-3.03589e-08
-3.03589e-08
4

shape_id 2
num_samples 2667
0.5
0.0795775
0.0126651
0.00201572
0.000320812
5.10588e-05
8.12626e-06
1.29333e-06
2.05841e-07
3.27606e-08
5.214e-09
8.29834e-10
1.32072e-10
2.102e-11
3.34544e-12
0
0
316
-0.5
-0.0795775
-0.0126651
-0.00201572
-0.000320812
-5.10588e-05
-8.12626e-06
-1.29333e-06
-2.05841e-07
-3.27606e-08
-5.214e-09
-8.29834e-10
-1.32072e-10
-2.102e-11
-3.34543e-12
0
0
317
0.5
0.0795775
0.0126651
0.00201572
0.000320812
5.10588e-05
8.12626e-06
1.29333e-06
2.05841e-07
3.27606e-08
5.214e-09
8.29834e-10
1.32072e-10
2.102e-11
3.34544e-12
0
0
316
-0.5
-0.0795775
-0.0126651
-0.00201572
-0.000320812
-5.10588e-05
-8.12626e-06
-1.29333e-06
-2.05841e-07
-3.27606e-08
-5.214e-09
-8.29834e-10
-1.32072e-10
-2.102e-11
-3.34543e-12
0
0
650
0.5
0.0795775
0.0126651
0.00201572
0.000320812
5.10588e-05
8.12626e-06
1.29333e-06
2.05841e-07
3.27606e-08
5.214e-09
8.29834e-10
1.32072e-10
2.102e-11
3.34544e-12
0
0
316
-0.5
-0.0795775
-0.0126651
-0.00201572
-0.000320812
-5.10588e-05
-8.12626e-06
-1.29333e-06
-2.05841e-07
-3.27606e-08
-5.214e-09
-8.29834e-10
-1.32072e-10
-2.102e-11
-3.34543e-12
0
0
316
0.5
0.0795775
0.0126651
0.00201572
0.000320812
5.10588e-05
8.12626e-06
1.29333e-06
2.05841e-07
3.27606e-08
5.214e-09
8.29834e-10
1.32072e-10
2.102e-11
3.34544e-12
0
0
317


[SIGNATURE]
Type md5
Hash 6c42392eb93aafb1ab4cb8f9ac5717a9
