# Pulseq sequence format
# Created by JEMRIS 2.9.2

[VERSION]
major 1
minor 2
revision 1

[DEFINITIONS]
Name sli_sel
Num_Blocks 6

# Format of blocks:
##  D RF  GX  GY  GZ ADC
[BLOCKS]
1  0  1   1   0   0  1
2  0  0   2   0   0  2
3  1  0   0   0   0  0
4  0  2   1   0   0  1
5  0  0   2   0   0  2
6  1  0   0   0   0  0

# Format of RF events:
# id amplitude mag_id phase_id delay freq phase
# ..        Hz   ....     ....    us   Hz   rad
[RF]
1      748.727 1 2  60 0 0
2      748.727 1 2  60 2247.19 0

# Format of trapezoid gradients:
# id amplitude rise flat fall delay
# ..      Hz/m   us   us   us    us
[TRAP]
 1      89887.64  60 2670  60   0
 2     -438202.2 280    0 280   0

# Format of ADC events:
# id num dwell delay freq phase
# ..  ..    ns    us   Hz   rad
[ADC]
 1   5 534000  60 0 0
 2   5 112000   0 0 0

# Format of delays:
# id delay (us)
[DELAYS]
1 100

# Sequence Shapes

[SHAPES]

shape_id 1
num_samples 2667
1.301821e-10
1.301821e-10
19
2.075129e-06
2.075129e-06
8
3.975074e-06
3.975074e-06
8
6.444204e-06
6.444204e-06
8
9.42411e-06
9.42411e-06
8
1.283805e-05
1.283805e-05
8
1.659196e-05
1.659196e-05
8
2.057585e-05
2.057585e-05
8
2.466554e-05
2.466554e-05
8
2.872469e-05
2.872469e-05
8
3.260717e-05
3.260717e-05
8
3.615972e-05
3.615972e-05
8
3.922475e-05
3.922475e-05
8
4.164345e-05
4.164345e-05
8
4.325898e-05
4.325898e-05
28
4.181715e-05
4.181715e-05
8
3.8807e-05
3.8807e-05
8
3.435501e-05
3.435501e-05
8
2.838524e-05
2.838524e-05
8
2.084592e-05
2.084592e-05
8
1.171196e-05
1.171196e-05
8
9.871048e-07
9.871048e-07
8
-1.129428e-05
-1.129428e-05
8
-2.506581e-05
-2.506581e-05
8
-4.022817e-05
-4.022817e-05
8
-5.664871e-05
-5.664871e-05
8
-7.416144e-05
-7.416144e-05
8
-9.256773e-05
-9.256773e-05
8
-0.0001116374
-0.0001116374
8
-0.0001311104
-0.0001311104
8
-0.0001506991
-0.0001506991
0
-6.074061e-05
0.0001506991
0.0001506991
5
0.000170091
0.000170091
8
0.0001889522
0.0001889522
8
0.0002069308
0.0002069308
8
0.0002236616
0.0002236616
8
0.0002387704
0.0002387704
8
0.000251879
0.000251879
8
0.0002626109
0.0002626109
8
0.0002705965
0.0002705965
8
0.000275479
0.000275479
8
0.00027692
0.00027692
8
0.000274606
0.000274606
8
0.0002682536
0.0002682536
8
0.0002576157
0.0002576157
8
0.0002424867
0.0002424867
8
0.0002227081
0.0002227081
8
0.0001981731
0.0001981731
8
0.000168831
0.000168831
8
0.0001346917
0.0001346917
8
9.582833e-05
9.582833e-05
8
5.238038e-05
5.238038e-05
8
4.555643e-06
4.555643e-06
8
-4.736859e-05
-4.736859e-05
8
-0.0001030451
-0.0001030451
8
-0.0001620569
-0.0001620569
8
-0.000223919
-0.000223919
8
-0.0002880801
-0.0002880801
8
-0.0003539255
-0.0003539255
8
-0.0004207815
-0.0004207815
8
-0.0004879198
-0.0004879198
8
-0.0005545632
-0.0005545632
8
-0.0006198917
-0.0006198917
8
-0.0006830504
-0.0006830504
8
-0.0007431562
-0.0007431562
4
0.0006328837
0.0007431562
0.0007431562
1
0.0007993073
0.0007993073
8
0.0008505918
0.0008505918
8
0.000896097
0.000896097
8
0.0009349193
0.0009349193
8
0.0009661748
0.0009661748
8
0.0009890085
0.0009890085
8
0.001002606
0.001002606
8
0.001006202
0.001006202
8
0.0009990931
0.0009990931
8
0.0009806438
0.0009806438
8
0.0009502995
0.0009502995
8
0.0009075931
0.0009075931
8
0.000852154
0.000852154
8
0.0007837156
0.0007837156
8
0.0007021216
0.0007021216
8
0.0006073322
0.0006073322
8
0.0004994281
0.0004994281
8
0.0003786146
0.0003786146
8
0.0002452237
0.0002452237
8
9.971567e-05
9.971567e-05
8
-5.732148e-05
-5.732148e-05
8
-0.0002251731
-0.0002251731
8
-0.0004030006
-0.0004030006
8
-0.0005898454
-0.0005898454
8
-0.0007846341
-0.0007846341
8
-0.0009861854
-0.0009861854
8
-0.001193217
-0.001193217
8
-0.001404356
-0.001404356
8
-0.001618147
-0.001618147
8
-0.001833065
-0.001833065
8
-0.002047525
-0.002047525
8
-0.002259899
-0.002259899
8
-0.002468524
-0.002468524
7
9.755743e-05
0.002671721
0.002671721
8
0.002867806
0.002867806
8
0.003055107
0.003055107
8
0.003231979
0.003231979
8
0.003396817
0.003396817
8
0.003548076
0.003548076
8
0.003684277
0.003684277
8
0.00380403
0.00380403
8
0.003906044
0.003906044
8
0.003989138
0.003989138
8
0.004052259
0.004052259
8
0.004094484
0.004094484
8
0.004115042
0.004115042
8
0.004113311
0.004113311
8
0.004088834
0.004088834
8
0.004041322
0.004041322
8
0.003970656
0.003970656
8
0.003876896
0.003876896
8
0.003760279
0.003760279
8
0.003621219
0.003621219
8
0.003460306
0.003460306
8
0.003278302
0.003278302
8
0.003076139
0.003076139
8
0.002854908
0.002854908
8
0.002615855
0.002615855
8
0.00236037
0.00236037
8
0.002089977
0.002089977
8
0.001806322
0.001806322
8
0.001511157
0.001511157
8
0.001206332
0.001206332
8
0.0008937747
0.0008937747
8
0.0005754768
0.0005754768
8
0.0002534775
0.0002534775
8
-7.015347e-05
-7.015347e-05
8
-0.0003933327
-0.0003933327
8
-0.0007139809
-0.0007139809
8
-0.001030039
-0.001030039
8
-0.001339487
-0.001339487
8
-0.001640358
-0.001640358
8
-0.001930757
-0.001930757
8
-0.002208875
-0.002208875
8
-0.002473003
-0.002473003
8
-0.002721547
-0.002721547
8
-0.002953039
-0.002953039
8
-0.003166152
-0.003166152
8
-0.003359704
-0.003359704
8
-0.003532673
-0.003532673
8
-0.0036842
-0.0036842
8
-0.003813597
-0.003813597
8
-0.00392035
-0.00392035
8
-0.004004121
-0.004004121
8
-0.00406475
-0.00406475
8
-0.004102257
-0.004102257
8
-0.004116831
-0.004116831
8
-0.004108837
-0.004108837
8
-0.004078805
-0.004078805
8
-0.004027421
-0.004027421
8
-0.003955524
-0.003955524
8
-0.003864094
-0.003864094
8
-0.003754242
-0.003754242
8
-0.003627196
-0.003627196
8
-0.003484294
-0.003484294
8
-0.003326965
-0.003326965
8
-0.003156719
-0.003156719
8
-0.002975128
-0.002975128
8
-0.002783817
-0.002783817
8
-0.002584443
-0.002584443
4
0.001242794
0.002584443
0.002584443
1
0.002378688
0.002378688
8
0.002168233
0.002168233
8
0.001954752
0.001954752
8
0.001739896
0.001739896
8
0.001525275
0.001525275
8
0.00131245
0.00131245
8
0.001102917
0.001102917
8
0.0008980962
0.0008980962
8
0.0006993237
0.0006993237
8
0.0005078384
0.0005078384
8
0.000324776
0.000324776
8
0.0001511606
0.0001511606
8
-1.210053e-05
-1.210053e-05
8
-0.0001642221
-0.0001642221
8
-0.0003045441
-0.0003045441
8
-0.0004325337
-0.0004325337
8
-0.0005477865
-0.0005477865
8
-0.0006500254
-0.0006500254
8
-0.0007390995
-0.0007390995
8
-0.0008149809
-0.0008149809
8
-0.0008777605
-0.0008777605
8
-0.000927643
-0.000927643
8
-0.0009649412
-0.0009649412
8
-0.0009900683
-0.0009900683
8
-0.00100353
-0.00100353
8
-0.001005918
-0.001005918
8
-0.0009978981
-0.0009978981
8
-0.0009802012
-0.0009802012
8
-0.0009536154
-0.0009536154
8
-0.0009189741
-0.0009189741
8
-0.0008771459
-0.0008771459
8
-0.0008290247
-0.0008290247
8
-0.0007755191
-0.0007755191
7
-2.68695e-05
0.0007175426
0.0007175426
8
0.0006560041
0.0006560041
8
0.0005917982
0.0005917982
8
0.0005257968
0.0005257968
8
0.0004588407
0.0004588407
8
0.000391732
0.000391732
8
0.0003252276
0.0003252276
8
0.0002600327
0.0002600327
8
0.000196796
0.000196796
8
0.0001361052
0.0001361052
8
7.848303e-05
7.848303e-05
8
2.438542e-05
2.438542e-05
8
-2.580089e-05
-2.580089e-05
8
-7.175897e-05
-7.175897e-05
8
-0.0001132417
-0.0001132417
8
-0.0001500712
-0.0001500712
8
-0.0001821369
-0.0001821369
8
-0.0002093935
-0.0002093935
8
-0.0002318578
-0.0002318578
8
-0.0002496053
-0.0002496053
8
-0.0002627658
-0.0002627658
8
-0.0002715189
-0.0002715189
8
-0.0002760887
-0.0002760887
18
-0.0002737664
-0.0002737664
8
-0.0002674965
-0.0002674965
8
-0.0002582762
-0.0002582762
8
-0.0002464684
-0.0002464684
8
-0.0002324466
-0.0002324466
8
-0.0002165887
-0.0002165887
8
-0.0001992716
-0.0001992716
8
-0.0001808664
-0.0001808664
8
-0.000161733
-0.000161733
8
-0.0001422159
-0.0001422159
0
-0.0001346094
0.0001422159
0.0001422159
5
0.0001226404
0.0001226404
8
0.0001033084
0.0001033084
8
8.449602e-05
8.449602e-05
8
6.645049e-05
6.645049e-05
8
4.938855e-05
4.938855e-05
8
3.349479e-05
3.349479e-05
8
1.892079e-05
1.892079e-05
8
5.784746e-06
5.784746e-06
8
-5.828389e-06
-5.828389e-06
8
-1.586624e-05
-1.586624e-05
8
-2.430792e-05
-2.430792e-05
8
-3.11624e-05
-3.11624e-05
8
-3.646663e-05
-3.646663e-05
8
-4.028317e-05
-4.028317e-05
8
-4.269761e-05
-4.269761e-05
8
-4.381565e-05
-4.381565e-05
18
-4.266741e-05
-4.266741e-05
8
-4.068484e-05
-4.068484e-05
8
-3.796662e-05
-3.796662e-05
8
-3.467083e-05
-3.467083e-05
8
-3.095615e-05
-3.095615e-05
8
-2.697865e-05
-2.697865e-05
8
-2.288884e-05
-2.288884e-05
8
-1.882892e-05
-1.882892e-05
8
-1.493023e-05
-1.493023e-05
8
-1.131103e-05
-1.131103e-05
8
-8.074615e-06
-8.074615e-06
8
-5.30768e-06
-5.30768e-06
8
-3.079128e-06
-3.079128e-06
8
-1.439202e-06
-1.439202e-06
8
-4.189991e-07
-4.189991e-07
14

shape_id 2
num_samples 2667
0.5
0.07957747
0.01266515
0.002015721
0.000320812
5.105881e-05
8.126261e-06
1.293335e-06
2.058406e-07
2.058406e-07
323
-0.5
-0.07957747
-0.01266515
-0.002015721
-0.000320812
-5.105881e-05
-8.126261e-06
-1.293335e-06
-2.058406e-07
-2.058406e-07
324
0.5
0.07957747
0.01266515
0.002015721
0.000320812
5.105881e-05
8.126261e-06
1.293335e-06
2.058406e-07
2.058406e-07
323
-0.5
-0.07957747
-0.01266515
-0.002015721
-0.000320812
-5.105881e-05
-8.126261e-06
-1.293335e-06
-2.058406e-07
-2.058406e-07
657
0.5
0.07957747
0.01266515
0.002015721
0.000320812
5.105881e-05
8.126261e-06
1.293335e-06
2.058406e-07
2.058406e-07
323
-0.5
-0.07957747
-0.01266515
-0.002015721
-0.000320812
-5.105881e-05
-8.126261e-06
-1.293335e-06
-2.058406e-07
-2.058406e-07
323
0.5
0.07957747
0.01266515
0.002015721
0.000320812
5.105881e-05
8.126261e-06
1.293335e-06
2.058406e-07
2.058406e-07
324


[SIGNATURE]
Type md5
Hash c25ab20c2444bec997d34d8bacb93edb
